x,y,velocity
-13.993784939482104,-9.810716654354136,2.837164077031852
-13.846153319137485,-9.810716654354136,2.837164077031852
-13.692307692307693,-9.810716654354136,2.837164077031852
-13.53846153846154,-9.810716654354136,2.837164077031852
-13.384615384615387,-9.810716654354136,2.837164077031852
-13.230769230769226,-9.810716654354136,2.837164077031852
-13.07692307692308,-9.810716654354136,2.837164077031852
-12.92307692307692,-9.810716654354136,2.837164077031852
-12.769230769230774,-9.810716654354136,2.837164077031852
-12.615384615384613,-9.810716654354136,2.837164077031852
-12.46153846153846,-9.810716654354136,2.837164077031852
-12.307692307692307,-9.810716654354136,2.837164077031852
-12.153846680862515,-9.810716654354136,2.837164077031852
-12.006214043253749,-9.810716760368715,2.837164077031852
-11.994219565619588,-9.811966827245032,2.837164077031852
-11.856886808499986,-9.842345129386116,2.840967888963828
-11.71377459749553,-9.889934630269867,2.844776800701392
-11.570661896243294,-9.949173690421754,2.8485908190819
-11.427549194991059,-10.013730708449742,2.8524099509518743
-11.284436493738816,-10.076752788562825,2.856234203167019
-11.141323792486581,-10.131594008841326,2.860063582592227
-10.998211091234346,-10.172513318558515,2.863898096101596
-10.85509838998211,-10.195269135372332,2.867737750578439
-10.711985688729875,-10.197549822363623,2.8715825529152994
-10.568872987477633,-10.179197422020536,2.8754325100139595
-10.425760286225405,-10.142204310385907,2.8792876287854563
-10.282647584973162,-10.090486398660893,2.883147916150093
-10.139534883720927,-10.029459626134031,2.8870133790374473
-9.996422182468692,-9.965466382467525,2.8908840243863922
-9.853309481216456,-9.905113186204469,2.894759859145101
-9.710196779964221,-9.854589032689407,2.898640890271063
-9.567084078711986,-9.819034624639961,2.9025271247310944
-9.42397137745975,-9.802026292565383,2.9064185695013545
-9.280858676207515,-9.805225615112478,2.910315231567354
-9.13774597495528,-9.828228007743382,2.914217117923968
-8.994633273703045,-9.86862277538708,2.918124235575452
-8.85152057245081,-9.92225549425776,2.9220365915354516
-8.708407871198574,-9.983663306066605,2.925954192827013
-8.565295169946332,-10.04663678965322,2.9298770464826016
-8.422182468694096,-10.104850147318004,2.933805159544111
-8.279069767441861,-10.152495591224849,2.937738539062874
-8.135957066189626,-10.184858489353385,2.941677192099678
-7.99284436493739,-10.198776818061432,2.9456211257247764
-7.849731663685155,-10.192940933438317,2.949570347017905
-7.706618962432913,-10.168006257148837,2.9535248630682864
-7.563506261180677,-10.126510441102099,2.9574846809746522
-7.420393559928442,-10.072606003207149,2.9614498078452476
-7.277280858676207,-10.011637390488985,2.96542025079785
-7.1341681574239715,-9.949606194376885,2.969396016959781
-6.991055456171736,-9.8925784406947,2.9733771134679143
-6.847942754919501,-9.846092609392823,2.9773635474686952
-6.704830053667266,-9.814625966992395,2.9813553261181482
-6.56171735241503,-9.801170151498138,2.985352456581894
-6.418604651162788,-9.806955503047789,2.9893549460351583
-6.275491949910553,-9.831348597132507,2.9933628016627876
-6.132379248658317,-9.871930340290042,2.997376030659261
-5.989266547406082,-9.924744520391915,3.0013946402287037
-5.846153846153847,-9.98469054824459,3.0054186375849
-5.703041144901611,-10.046020799994928,3.0094480299513036
-5.559928443649376,-10.102893678954189,3.013482824561056
-5.416815742397134,-10.149929054860923,3.017523028656993
-5.273703041144898,-10.182713423908377,3.0215686494916634
-5.130590339892663,-10.19820778459425,3.0256196943273372
-4.987477638640428,-10.195021198596093,3.029676170436024
-4.8443649373881925,-10.173526267327885,3.033738085099481
-4.701252236135957,-10.13580798542947,3.037805445609227
-4.558139534883722,-10.085453162312438,3.0418782592665603
-4.415026833631487,-10.027202352064755,3.0459565333825647
-4.271914132379251,-9.9664986487289,3.050040275278127
-4.128801431127016,-9.908976686848197,3.0541294922839506
-3.9856887298747807,-9.85993998055988,3.0582241917405653
-3.8425760286225383,-9.823874988863434,3.0623243809983434
-3.699463327370303,-9.804046087704448,3.0664300674175116
-3.5563506261180677,-9.80220744723435,3.070541258368165
-3.4132379248658324,-9.818456493614496,3.0746579612302796
-3.270125223613597,-9.851240283690602,3.078780183393725
-3.127012522361362,-9.897512000355219,3.0829079322582804
-2.983899821109123,-9.953021187638079,3.087041215233643
-2.8407871198568877,-10.012709508092273,3.0911800397394473
-2.6976744186046524,-10.071174752484556,3.0953244132052737
-2.5545617173524136,-10.12316031778171,3.0994743430706637
-2.4114490161001783,-10.164025811218826,3.103629836785134
-2.268336314847943,-10.190156887507516,3.107790901808187
-2.1252236135957077,-10.199278574471217,3.111957545609328
-1.9821109123434724,-10.190645558336097,3.116129775668075
-1.8389982110912335,-10.165094294732338,3.120307599473976
-1.6958855098389982,-10.124954324862623,3.1244910245266198
-1.552772808586763,-10.073828675222964,3.128680058335648
-1.4096601073345276,-10.016264600132649,3.1328747084207715
-1.2665474060822888,-9.957345211572903,3.137074982311784
-1.1234347048300535,-9.90223896142814,3.1412808875485743
-0.9803220035778182,-9.855746998454396,3.1454924316811383
-0.8372093023255829,-9.821887923978501,3.149709622269596
-0.694096601073344,-9.803555539150157,3.153932466884202
-0.5509838998211087,-9.802278230774983,3.158160973105362
-0.40787119856887344,-9.818099351718342,3.1623951485236432
-0.26475849731663814,-9.849587171222726,3.1666350007397908
-0.12164579606440284,-9.893971663114932,3.170880537364739
0.021466905187836005,-9.947394550053849,3.175131766019627
0.1645796064400713,-10.005249550177965,3.1793886943358127
0.3076923076923066,-10.062582458362035,3.1836513299548836
0.4508050089445419,-10.114516113761121,3.1879196805286734
0.5939177101967807,-10.156663787256612,3.192193753719273
0.737030411449016,-10.18549612738212,3.1964735571990492
0.8801431127012513,-10.198631325801411,3.2007590986506527
1.0232558139534902,-10.195025156569448,3.2050503857670334
1.1663685152057255,-10.17504636330728,3.20934742625146
1.3094812164579608,-10.140432733650659,3.213650227817523
1.452593917710196,-10.09413326131526,3.217958798189159
1.5957066189624314,-10.040051208065586,3.2222731451006585
1.7388193202146667,-9.982710871127477,3.2265932762966805
1.881932021466902,-9.926876803615569,3.2309191995322695
2.025044722719141,-9.877157679682462,3.2352509225728654
2.168157423971376,-9.837627713382032,3.239588453194321
2.311270125223615,-9.811496532365462,3.2439317991829126
2.4543828264758503,-9.800853900349823,3.248280968335356
2.5974955277280856,-9.8065091011301,3.252635968458821
2.740608228980321,-9.827936726204147,3.256996807370944
2.883720930232556,-9.86333173933062,3.261363492899842
3.0268336314847915,-9.90976776377736,3.2657360328841287
3.1699463327370303,-9.963444277247069,3.2701144351729257
3.3130590339892656,-10.020001459034686,3.2744987076258787
3.456171735241501,-10.07487634452038,3.278888858113169
3.5992844364937397,-10.12367107197552,3.283284894515534
3.742397137745975,-10.16250353674261,3.287686824724273
3.8855098389982103,-10.188312682220666,3.292094656641266
4.028622540250446,-10.199094749695544,3.2965083981789864
4.171735241502681,-10.194052705383386,3.3009280572605197
4.31484794275492,-10.173648254545494,3.305353641819569
4.457960644007155,-10.139553740614888,3.3097851598004766
4.60107334525939,-10.094509173209712,3.314222619158237
4.744186046511626,-10.042097005300345,3.318666027858508
4.8872987477638645,-9.986453519667451,3.3231153938776266
5.0304114490161,-9.931940324423895,3.3275707252026265
5.173524150268335,-9.882802169796891,3.332032029831249
5.31663685152057,-9.84283791511014,3.336499315771953
5.459749552772809,-9.815109994775082,3.3409725910439416
5.602862254025045,-9.801714316670408,3.345451863677167
5.74597495527728,-9.803627482911194,3.3499371417123442
5.889087656529515,-9.820641977056928,3.354428433200973
6.032200357781754,-9.851393020652457,3.358925746205344
6.175313059033989,-9.893473713756709,3.3634290887985587
6.318425760286225,-9.9436283845229,3.367938469064543
6.46153846153846,-9.998008283638283,3.37245389509806
6.604651162790695,-10.052469291113642,3.3769753750047253
6.747763864042934,-10.102888465291063,3.381502916901022
6.890876565295169,-10.145475235483845,3.386036528914317
7.033989266547405,-10.177053857664067,3.3905762191828703
7.17710196779964,-10.195296314249589,3.3951219958558547
7.320214669051879,-10.198888912968725,3.3996738670933695
7.463327370304114,-10.18762108702437,3.404231841066452
7.606440071556349,-10.162390901071007,3.408795925957097
7.749552772808585,-10.125128060693964,3.4133661299582663
7.8926654740608235,-10.078641332903981,3.4179424612739093
8.035778175313059,-10.026402762811593,3.4225249281189716
8.178890876565294,-9.972285526262743,3.427113538719414
8.32200357781753,-9.92027538417083,3.4317083013122267
8.465116279069768,-9.874177301346176,3.4363092241454414
8.608228980322004,-9.837338777794198,3.4409163154781495
8.751341681574239,-9.812409850797028,3.4455295835805146
8.894454382826474,-9.801156712742936,3.4501490367337873
9.03756708407871,-9.804341703669706,3.454774683230325
9.180679785330948,-9.821677408802234,3.459406531373597
9.323792486583184,-9.851857102771525,3.4640445894782106
9.466905187835415,-9.892658240171908,3.468688865869916
9.610017889087654,-9.94111049683584,3.473339368885629
9.753130590339893,-9.993715382981945,3.47799610687344
9.896243291592128,-10.046700983382866,3.482659088192635
10.039355992844364,-10.096293155748887,3.4873283212137056
10.182468694096599,-10.138983667319724,3.492003814318365
10.325581395348834,-10.171776301023563,3.4966855758995656
10.468694096601073,-10.192393846112795,3.5013736143615106
10.611806797853305,-10.19943194106519,3.506067938119673
10.754919499105544,-10.192449717463482,3.5107685556008055
10.898032200357783,-10.171991801974794,3.515475475242961
11.041144901610018,-10.139541132342737,3.5201887054955057
11.184257602862253,-10.097406883459687,3.5249082548191306
11.327370304114488,-10.04855624487536,3.5296341316858753
11.470483005366724,-9.996402541159219,3.5343663445791313
11.613595706618966,-9.944564996760924,3.539104901993672
11.756708407871198,-9.896617143972048,3.5438498124356506
11.899821109123433,-9.855841364055081,3.5486010844226326
12.042933810375668,-9.82500633067435,3.5533587264835993
12.186046511627907,-9.806182267995892,3.5581227471589663
12.329159212880143,-9.800606095688165,3.5628931550006016
12.472271914132378,-9.808604925415981,3.567669958571837
12.615384615384613,-9.829582261062486,3.572453166447487
12.758497316636848,-9.862066928380647,3.577242787213858
12.901610017889087,-9.903820516884124,3.5820388294687757
13.044722719141323,-9.951995242276181,3.5868413018215874
13.187835420393556,-10.00333088438521,3.5916502128931826
13.330948121645793,-10.054377028148824,3.596465571316014
13.47406082289803,-10.101725377888734,3.6012873857341012
13.617173524150266,-10.142236503675278,3.6061156648030592
13.760286225402503,-10.17324601705787,3.610950417190101
13.903398926654736,-10.192736795934767,3.6157916515740673
14.046511627906977,-10.199466355289745,3.62063937664543
14.18962432915921,-10.193041609045828,3.6254936011063124
14.332737030411447,-10.173936865715467,3.6303543336705073
14.475849731663683,-10.14345470019608,3.6352215830634864
14.618962432915922,-10.103633092174181,3.640095358022424
14.762075134168157,-10.057105674068218,3.6449756672962037
14.905187835420392,-10.006924869565598,3.649862519645444
15.048300536672627,-9.956359947857345,3.6547559238425054
15.191413237924866,-9.908683438486035,3.65965588867151
15.334525939177102,-9.86695987379626,3.6645624229283587
15.477638640429337,-9.833850436659807,3.6694755354207405
15.62075134168157,-9.811445835874432,3.67439523496816
15.763864042933807,-9.80113771037434,3.67932153040194
15.906976744186046,-9.803536222731035,3.6842544305652467
16.05008944543828,-9.818438424904453,3.689193944313102
16.193202146690517,-9.844848670676388,3.6941400805123985
16.336314847942752,-9.881049025070432,3.6990928480419187
16.47942754919499,-9.924714492362593,3.7040522557923468
16.622540250447226,-9.97306514441476,3.709018312666289
16.765652951699458,-10.023045044060014,3.7139910275782855
16.908765652951697,-10.071516349289473,3.718970409454828
17.051878354203936,-10.115456232510002,3.7239564672343812
17.19499105545617,-10.152144285232621,3.7289492098673853
17.338103756708406,-10.179328882361506,3.733948646316286
17.48121645796064,-10.195362484620636,3.7389547855555447
17.624329159212877,-10.199297953582732,3.743967636571652
17.767441860465116,-10.19094049833385,3.7489872083631512
17.91055456171735,-10.170852698945225,3.754013509940646
18.053667262969586,-10.140312979379756,3.7590465503268233
18.19677996422182,-10.101230749251144,3.764086338556464
18.339892665474057,-10.05602402747966,3.769132883676465
18.483005366726296,-10.007467548627037,3.774186194745852
18.62611806797853,-9.958521010376014,3.7792462808357943
18.769230769230766,-9.912148159403005,3.784313151029625
18.912343470483005,-9.871137783679194,3.789386814422853
19.05545617173524,-9.83793737455261,3.7944672801231847
19.198568872987472,-9.81450927527036,3.7995545572505356
19.34168157423971,-9.802217615141652,3.8046486549370466
19.48479427549195,-9.801752344034215,3.8097495823271075
19.627906976744185,-9.813094359415029,3.814857348577362
19.77101967799642,-9.835523203719234,3.819971962856732
19.914132379248652,-9.867666257268331,3.8250934343464342
20.057245080500888,-9.907585913497748,3.830221772239995
20.200357781753127,-9.952899040577925,3.8353569857432626
20.343470483005362,-10.000921229666199,3.840499084074431
20.486583184257604,-10.048827002672025,3.845648076464053
20.629695885509836,-10.093816368792854,3.850803972155054
20.77280858676207,-10.133277912888362,3.855966780402757
20.91592128801431,-10.164938969132873,3.861136510474887
21.059033989266545,-10.186994345869314,3.866313171651599
21.20214669051878,-10.198206457084499,3.8714967732254872
21.345259391771013,-10.197971491310533,3.876687324501608
21.488372093023248,-10.186348298870751,3.8818848347974906
21.63148479427549,-10.16404887900403,3.887089313443154
21.77459749552773,-10.132391569736237,3.8923007697811327
21.917710196779964,-10.093220157689903,3.8975192131664795
22.060822898032196,-10.04879401390886,3.902744652966796
22.203935599284435,-10.001655922615653,3.9079770985622377
22.34704830053667,-9.954485421233985,3.9132165593455386
22.490161001788906,-9.909946155878318,3.9184630447220266
22.633273703041144,-9.870535948470126,3.9237165641096374
22.776386404293376,-9.838447969904244,3.9289771269389355
22.91949910554562,-9.81545064626785,3.9342447426531253
23.062611806797854,-9.802792745465405,3.9395194207080784
23.20572450805009,-9.80113857493331,3.9448011705723354
23.348837209302324,-9.810536459592342,3.9500900017271383
23.49194991055456,-9.830421766278405,3.9553859236664404
23.635062611806795,-9.859653805378944,3.960688945896916
23.77817531305903,-9.896584080141492,3.965999077937997
23.921288014311266,-9.939151670120598,3.9713163293218674
24.064400715563508,-9.985000116262272,3.9766407095934975
24.207513416815743,-10.03160909317966,3.981972228310651
24.35062611806798,-10.07643346096496,3.987310895043909
24.493738819320214,-10.117042013579802,3.9926567193766824
24.63685152057245,-10.151248389120099,3.9980097109052286
24.779964221824685,-10.177227161534953,4.003369879238676
24.923076923076916,-10.19360905457849,4.008737233999028
25.066189624329155,-10.199550448898469,4.014111784821199
25.20930232558139,-10.194773819006766,4.01949354135301
25.352415026833633,-10.179577354364758,4.024882513255226
25.495527728085868,-10.154813697842389,4.030278710201557
25.6386404293381,-10.121839384218358,4.035682141878688
25.78175313059034,-10.082438093882217,4.041092817986289
25.924865831842574,-10.038722173583025,4.046510748237035
26.06797853309481,-9.993017950417778,4.051935942356621
26.211091234347045,-9.947741126294021,4.057368410083782
26.354203935599276,-9.905268954687433,4.062808161170311
26.49731663685152,-9.867815955577187,4.068255205381078
26.640429338103758,-9.837319623206941,4.073709552494037
26.783542039355993,-9.815341948502562,4.079171212300259
26.926654740608228,-9.80299165403397,4.084640194603938
27.06976744186046,-9.800870878958143,4.090116509222414
27.212880143112695,-9.809048719976706,4.095600165986188
27.35599284436493,-9.827062604766107,4.101091174738941
27.49910554561717,-9.853947022632196,4.106589545337554
27.642218246869405,-9.88828773858911,4.11209528765212
27.785330948121644,-9.928298342335639,4.117608411565967
27.92844364937388,-9.971914895254669,4.123128926975674
28.071556350626114,-10.016903588048608,4.128656843791086
28.21466905187835,-10.060975746979265,4.134192171935334
28.35778175313059,-10.101904250947303,4.139734921344857
28.500894454382827,-10.137635452118138,4.145285101969415
28.64400715563506,-10.16639102108657,4.1508427237721
28.787119856887294,-10.186754740452086,4.156407796729375
28.930232558139533,-10.19774011168186,4.161980330831067
29.073345259391772,-10.19883567174989,4.167560336080403
29.21645796064401,-10.19002608237815,4.173147822494018
29.359570661896242,-10.1717882945516,4.178742800101978
29.502683363148478,-10.145063340982704,4.184345278947798
29.645796064400713,-10.111205507087625,4.1899552690884505
29.78890876565295,-10.071911718669257,4.195572780594404
29.932021466905184,-10.029134910646945,4.20119782354962
30.07513416815742,-9.984985863835231,4.206830408051582
30.21824686940966,-9.941628485015183,4.212470544211308
30.361359570661897,-9.901173740690828,4.218118242153378
30.504472271914132,-9.8655774311559,4.223773512015942
30.647584973166367,-9.836546715762628,4.229436363950743
30.790697674418603,-9.815459791622548,4.2351068081231364
30.933810375670838,-9.803302416242333,4.240784854712105
31.076923076923073,-9.800624088752528,4.246470513910275
31.22003577817531,-9.807515710318018,4.252163795923945
31.36314847942755,-9.823609482467647,4.257864710973093
31.506261180679783,-9.848100724881304,4.263573269291398
31.64937388193202,-9.879790253487647,4.269289481126264
31.792486583184257,-9.917145004376437,4.275013356738828
31.935599284436492,-9.958373762555048,4.2807449064039895
32.07871198568873,-10.001514193307731,4.28648414041042
32.22182468694096,-10.044526905443675,4.292231069060588
32.3649373881932,-10.08539201784048,4.297985702670769
32.50805008944543,-10.122203660829319,4.303748051571079
32.651162790697676,-10.153258019118828,4.309518126105474
32.79427549194991,-10.177130900104554,4.315295936631785
32.937388193202146,-10.192741368428365,4.321081493521727
33.08050089445438,-10.1993986945699,4.32687480716092
33.22361359570662,-10.196830685881386,4.332675887948911
33.36672629695885,-10.185192362256279,4.338484746299185
33.50983899821109,-10.165054862620325,4.344301392639194
33.652951699463316,-10.137375379396328,4.350125837410363
33.796064400715565,-10.10344977444771,4.355958091068124
33.9391771019678,-10.064850293721396,4.361798164081923
34.082289803220036,-10.023351436048205,4.36764606693524
34.22540250447227,-9.98084751802882,4.3735018101256165
34.3685152057245,-9.939265792910295,4.379365404164659
34.51162790697674,-9.900479116329315,4.385236859578078
34.65474060822898,-9.866222103709017,4.391116186905688
34.79785330948121,-9.838014499213477,4.397003396701433
34.94096601073345,-9.817095088562168,4.402898499533418
35.08407871198569,-9.80436895872056,4.408801505983902
35.227191413237925,-9.800370263370278,4.414712426649344
35.37030411449017,-9.805241925442923,4.420631272140401
35.513416815742396,-9.818732931135095,4.426558053081963
35.65652951699463,-9.840213079301522,4.432492780113157
35.799642218246866,-9.868704281258715,4.438435463887382
35.9427549194991,-9.902926792292838,4.444386115072317
36.08586762075134,-9.941358127756125,4.450344744349938
36.22898032200357,-9.98230189925039,4.456311362416551
36.372093023255815,-10.023963420217544,4.4622859799827985
36.51520572450805,-10.064528689221824,4.468268607773683
