x,y,velocity
-13.993784939482104,-9.902041142708315,5.0
-13.846153319137485,-9.902041142708315,5.0
-13.692307692307693,-9.902041142708315,5.0
-13.53846153846154,-9.902041142708315,5.0
-13.384615384615387,-9.902041142708315,5.0
-13.230769230769226,-9.902041142708315,5.0
-13.07692307692308,-9.902041142708315,5.0
-12.92307692307692,-9.902041142708315,5.0
-12.769230769230774,-9.902041142708315,5.0
-12.615384615384613,-9.902041142708315,5.0
-12.46153846153846,-9.902041142708315,5.0
-12.307692307692307,-9.902041142708315,5.0
-12.153846680862515,-9.902041142708315,5.0
-12.006214043253749,-9.902041163356616,5.0
-11.994219565619588,-9.902284638538154,5.0
-11.856886808499986,-9.90821920463288,5.0078368036308385
-11.71377459749553,-9.9179533613411,5.015685890359905
-11.570661896243294,-9.930993392484341,5.023547279439248
-11.427549194991059,-9.946797726673028,5.031420990151088
-11.284436493738816,-9.964717754100564,5.039307041807867
-11.141323792486581,-9.98402501562427,5.047205453752295
-10.998211091234346,-10.003941218267347,5.055116245357406
-10.85509838998211,-10.023669822573298,5.063039436026592
-10.711985688729875,-10.042427916525837,5.0709750451936575
-10.568872987477633,-10.059477105108181,5.078923092322869
-10.425760286225405,-10.074152209077084,5.0868835969090025
-10.282647584973162,-10.085886677301625,5.094856578477383
-10.139534883720927,-10.094233768476604,5.102842056583946
-9.996422182468692,-10.098882743132897,5.1108400508152725
-9.853309481216456,-10.099669517480125,5.118850580788645
-9.710196779964221,-10.096581457813693,5.126873666152093
-9.567084078711986,-10.089756228693892,5.134909326584443
-9.42397137745975,-10.079474840540037,5.142957581795364
-9.280858676207515,-10.066149263710841,5.151018451525416
-9.13774597495528,-10.050305178282345,5.159091955546101
-8.994633273703045,-10.032560604294916,5.167178113659911
-8.85152057245081,-10.013601300163401,5.175276945700374
-8.708407871198574,-9.994153922603708,5.183388471532106
-8.565295169946332,-9.974958006760202,5.191512711050856
-8.422182468694096,-9.956737848784812,5.199649684183557
-8.279069767441861,-9.940175355117443,5.207799410888375
-8.135957066189626,-9.925884864913666,5.215961911154761
-7.99284436493739,-9.91439085768201,5.224137205003491
-7.849731663685155,-9.906109331735465,5.232325312486724
-7.706618962432913,-9.901333486111067,5.240526253688048
-7.563506261180677,-9.900224165579399,5.24874004872253
-7.420393559928442,-9.902805342227001,5.25696671773676
-7.277280858676207,-9.908964715109228,5.265206280908911
-7.1341681574239715,-9.918459318904373,5.273458758448779
-6.991055456171736,-9.93092585035341,5.281724170597837
-6.847942754919501,-9.945895254030239,5.290002537629282
-6.704830053667266,-9.962810962404516,5.298293879848089
-6.56171735241503,-9.98105006405708,5.306598217591057
-6.418604651162788,-9.999946582039428,5.31491557122686
-6.275491949910553,-10.018815984311182,5.323245961156098
-6.132379248658317,-10.036980021289189,5.331589407811346
-5.989266547406082,-10.053790991905911,5.3399459316571996
-5.846153846153847,-10.068654578104567,5.3483155531903375
-5.703041144901611,-10.081050456170148,5.356698292939559
-5.559928443649376,-10.090549988475576,5.365094171465843
-5.416815742397134,-10.096830417015235,5.373503209362388
-5.273703041144898,-10.099685115721629,5.381925427254679
-5.130590339892663,-10.099029606737867,5.390360845800521
-4.987477638640428,-10.094903200980463,5.3988094856901
-4.8443649373881925,-10.087466279820303,5.407271367646032
-4.701252236135957,-10.076993386999508,5.415746512423412
-4.558139534883722,-10.063862442761312,5.424234940809862
-4.415026833631487,-10.048540520855287,5.432736673625595
-4.271914132379251,-10.031566739479715,5.441251731723446
-4.128801431127016,-10.013532905981686,5.449780135988941
-3.9856887298747807,-9.995062619746903,5.458321907340338
-3.8425760286225383,-9.976789576576364,5.466877066728683
-3.699463327370303,-9.959335830301857,5.475445635137861
-3.5563506261180677,-9.943290753699337,5.484027633584641
-3.4132379248658324,-9.929191402069277,5.4926230831187395
-3.270125223613597,-9.917504921137857,5.501232004822862
-3.127012522361362,-9.908613558889911,5.509854419812757
-2.983899821109123,-9.902802741883743,5.518490349237273
-2.8407871198568877,-9.900252564307863,5.527139814278402
-2.6976744186046524,-9.901032916645933,5.5358028361513405
-2.5545617173524136,-9.905102354629378,5.54447943610453
-2.4114490161001783,-9.912310682523694,5.553169635419725
-2.268336314847943,-9.922405101949016,5.561873455412029
-2.1252236135957077,-9.935039662362847,5.570590917429954
-1.9821109123434724,-9.949787645644077,5.579322042855482
-1.8389982110912335,-9.966156428040328,5.588066853104094
-1.6958855098389982,-9.983604290634375,5.596825369624849
-1.552772808586763,-10.001558596370906,5.605597613900417
-1.4096601073345276,-10.01943471880526,5.614383607447143
-1.2665474060822888,-10.036655095635401,5.623183371815096
-1.1234347048300535,-10.052667788608103,5.6319969285881175
-0.9803220035778182,-10.066963959734654,5.640824299383882
-0.8372093023255829,-10.079093720476642,5.6496655058539496
-0.694096601073344,-10.088679873682072,5.658520569683808
-0.5509838998211087,-10.095429145110163,5.667389512592943
-0.40787119856887344,-10.099140589547124,5.676272356334875
-0.26475849731663814,-10.099710952679375,5.685169122697224
-0.12164579606440284,-10.097136870785196,5.694079833501761
0.021466905187836005,-10.091513892604384,5.703004510604456
0.1645796064400713,-10.08303240817547,5.7119431758955335
0.3076923076923066,-10.071970664872339,5.720895851299533
0.4508050089445419,-10.058685138455749,5.7298625587753556
0.5939177101967807,-10.043598604140557,5.7388433203163185
0.737030411449016,-10.027186317325476,5.74783815795021
0.8801431127012513,-10.009960764053005,5.756847093739351
1.0232558139534902,-9.992455476267963,5.76587014978063
1.1663685152057255,-9.975208425843503,5.774907348205578
1.3094812164579608,-9.95874551398004,5.783958711180411
1.452593917710196,-9.943564659299595,5.793024260906091
1.5957066189624314,-9.930120959578352,5.802104019618372
1.7388193202146667,-9.918813359846212,5.81119800958786
1.881932021466902,-9.909973205182082,5.820306253120073
2.025044722719141,-9.903854991918925,5.829428772555481
2.168157423971376,-9.900629558368077,5.8385655902695754
2.311270125223615,-9.90037987797932,5.847716728672919
2.4543828264758503,-9.903099536572249,5.856882210211194
2.5974955277280856,-9.908693893426376,5.8660620573652675
2.740608228980321,-9.916983846065719,5.875256292651243
2.883720930232556,-9.92771204285467,5.884464938620514
3.0268336314847915,-9.940551318176677,5.893688017859819
3.1699463327370303,-9.955115063885216,5.902925552991296
3.3130590339892656,-9.970969199487667,5.912177566672547
3.456171735241501,-9.987645363398574,5.921444081596678
3.5992844364937397,-10.004654919468617,5.9307251204923706
3.742397137745975,-10.021503357369365,5.940020706123926
3.8855098389982103,-10.037704662421515,5.949330861291327
4.028622540250446,-10.052795239852664,5.958655608830294
4.171735241502681,-10.06634699966356,5.967994971612332
4.31484794275492,-10.077979240348057,5.977348972544803
4.457960644007155,-10.087369011442968,5.986717634570969
4.60107334525939,-10.094259684827723,5.996100980670049
4.744186046511626,-10.098467521204395,6.005499033857287
4.8872987477638645,-10.099886079480056,6.014911817183992
5.0304114490161,-10.098488380975434,6.024339353737608
5.173524150268335,-10.094326805597124,6.033781666641762
5.31663685152057,-10.087530761463308,6.043238779056328
5.459749552772809,-10.078302231171177,6.052710714177472
5.602862254025045,-10.066909355272056,6.062197495237728
5.74597495527728,-10.053678265081341,6.071699145506036
5.889087656529515,-10.038983421404915,6.0812156882878075
6.032200357781754,-10.023236752058688,6.090747146924984
6.175313059033989,-10.00687590839766,6.1002935447960915
6.318425760286225,-9.99035197893246,6.1098549053163
6.46153846153846,-9.974117006248367,6.119431251937474
6.604651162790695,-9.958611651885205,6.129022608148243
6.747763864042934,-9.944253342881492,6.13862899747405
6.890876565295169,-9.931425213878216,6.148250443477203
7.033989266547405,-9.920466130788396,6.157886969756951
7.17710196779964,-9.911662047037105,6.167538599949529
7.320214669051879,-9.905238902397853,6.177205357728212
7.463327370304114,-9.901357228758426,6.186887266803387
7.606440071556349,-9.900108578096576,6.196584350922602
7.749552772808585,-9.90151383693863,6.206296633870624
7.8926654740608235,-9.905523440028684,6.216024139469498
8.035778175313059,-9.91201944524258,6.225766891578612
8.178890876565294,-9.920819383265844,6.235524914094748
8.32200357781753,-9.931681750448368,6.24529823095214
8.465116279069768,-9.944312972654561,6.255086866122537
8.608228980322004,-9.958375632798301,6.264890843615265
8.751341681574239,-9.973497725867889,6.274710187477275
8.894454382826474,-9.98928268320099,6.284544921793209
9.03756708407871,-10.00531989296027,6.294395070685466
9.180679785330948,-10.021195436384092,6.304260658314241
9.323792486583184,-10.036502759440042,6.314141708877606
9.466905187835415,-10.050853006797212,6.324038246611558
9.610017889087654,-10.063884759178936,6.333950295790079
9.753130590339893,-10.07527293561775,6.3438778807251985
9.896243291592128,-10.084736648219899,6.35382102576705
10.039355992844364,-10.092045827943215,6.363779755303935
10.182468694096599,-10.09702647468734,6.373754093762378
10.325581395348834,-10.099564422702704,6.383744065607192
10.468694096601073,-10.09960755191386,6.393749695341531
10.611806797853305,-10.097166416174556,6.403771007506955
10.754919499105544,-10.092313299687657,6.413808026683493
10.898032200357783,-10.085179751828306,6.423860777489694
11.041144901610018,-10.075952687460246,6.4339292845827005
11.184257602862253,-10.064869173669468,6.444013572658295
11.327370304114488,-10.052210053894715,6.45411366645097
11.470483005366724,-10.038292586063868,6.4642295907339875
11.613595706618966,-10.023462292032104,6.474361370319435
11.756708407871198,-10.008084230980645,6.484509030058289
11.899821109123433,-9.992533919236385,6.494672594840484
12.042933810375668,-9.977188123117543,6.504852089594953
12.186046511627907,-9.962415749945743,6.5150475392897125
12.329159212880143,-9.948569055472348,6.525258968931911
12.472271914132378,-9.935975373955712,6.535486403567889
12.615384615384613,-9.924929560420278,6.545729868283244
12.758497316636848,-9.915687313753363,6.555989388202892
12.901610017889087,-9.908459524861904,6.566264988491134
13.044722719141323,-9.903407766797173,6.576556694351703
13.187835420393556,-9.900641014288745,6.586864531027845
13.330948121645793,-9.900213649266952,6.597188523802365
13.47406082289803,-9.90212477746533,6.607528697997696
13.617173524150266,-9.906318849842002,6.617885078975964
13.760286225402503,-9.912687552078145,6.628257692139041
13.903398926654736,-9.921072896496263,6.638646562928619
14.046511627906977,-9.931271424028353,6.649051716826261
14.18962432915921,-9.943039399920814,6.65947317935347
14.332737030411447,-9.956098866174596,6.6699109760717565
14.475849731663683,-9.970144396681476,6.6803651325826845
14.618962432915922,-9.984850387929328,6.690835674527956
14.762075134168157,-9.99987870921005,6.701322627589451
14.905187835420392,-10.014886531570724,6.711826017489313
15.048300536672627,-10.029534154298329,6.722345869989995
15.191413237924866,-10.043492651420468,6.732882210894333
15.334525939177102,-10.05645116834676,6.743435066045602
15.477638640429337,-10.068123710090648,6.754004461327583
15.62075134168157,-10.078255277147388,6.764590422664629
15.763864042933807,-10.086627222643177,6.7751929760217235
15.906976744186046,-10.093061724342007,6.785812147404548
16.05008944543828,-10.097425286989065,6.796447962859539
16.193202146690517,-10.099631213741718,6.807100448473967
16.336314847942752,-10.099641009536498,6.817769630375984
16.47942754919499,-10.097464703604814,6.828455534734695
16.622540250447226,-10.093160102434469,6.839158187760218
16.765652951699458,-10.08683100775292,6.849877615703763
16.908765652951697,-10.078624456089825,6.860613844857671
17.051878354203936,-10.068727056711205,6.871366901555501
17.19499105545617,-10.057360522808308,6.882136812172088
17.338103756708406,-10.044776506431464,6.892923603123599
17.48121645796064,-10.031250860508385,6.90372730086761
17.624329159212877,-10.017077461170048,6.91454793190316
17.767441860465116,-10.002561730389782,6.925385522770828
17.91055456171735,-9.98801400255642,6.936240100052788
18.053667262969586,-9.973742879056045,6.94711169037288
18.19677996422182,-9.960048712301148,6.958000320396671
18.339892665474057,-9.947217355058516,6.968906016831523
18.483005366726296,-9.935514302583531,6.979828806426657
18.62611806797853,-9.925179344218478,6.990768715973224
18.769230769230766,-9.916421828050723,7.001725772304362
18.912343470483005,-9.909416627286994,7.012700002295266
19.05545617173524,-9.90430088054602,7.023691432863261
19.198568872987472,-9.901171560687896,7.034700090967851
19.34168157423971,-9.900083908482502,7.045726003610802
19.48479427549195,-9.90105074877173,7.056769197836198
19.627906976744185,-9.904042688197976,7.067829700730517
19.77101967799642,-9.908989175437128,7.078907539422683
19.914132379248652,-9.915780387551816,7.090002741084144
20.057245080500888,-9.9242698899049,7.1011153329289405
20.200357781753127,-9.934278002346693,7.112245342213761
20.343470483005362,-9.945595791375853,7.123392796238018
20.486583184257604,-9.957989596893775,7.134557722343903
20.629695885509836,-9.97120599320091,7.145740147916482
20.77280858676207,-9.984977077147565,7.156940100383724
20.91592128801431,-9.999025971929072,7.1681576072166004
21.059033989266545,-10.013072432934663,7.179392695929132
21.20214669051878,-10.026838442301521,7.190645394078467
21.345259391771013,-10.040053681324864,7.201915729264941
21.488372093023248,-10.052460774522489,7.213203729132161
21.63148479427549,-10.063820205799626,7.224509421367048
21.77459749552773,-10.073914815622876,7.235832833699926
21.917710196779964,-10.082553798175365,7.247173993904582
22.060822898032196,-10.089576128889197,7.258532929798331
22.203935599284435,-10.094853365275217,7.269909669242092
22.34704830053667,-10.098291777319684,7.2813042401404475
22.490161001788906,-10.099833777610648,7.292716670441723
22.633273703041144,-10.099458635508181,7.304146988138041
22.776386404293376,-10.097182473800755,7.315595221265403
22.91949910554562,-10.093057560121967,7.327061397903755
23.062611806797854,-10.087170918677954,7.338545546177048
23.20572450805009,-10.079642300315577,7.35004769425332
23.348837209302324,-10.07062156042553,7.36156787034475
23.49194991055456,-10.060285504430851,7.373106102707745
23.635062611806795,-10.048834269495101,7.384662419642995
23.77817531305903,-10.036487318463266,7.396236849495551
23.921288014311266,-10.023479127821329,7.407829420654883
24.064400715563508,-10.010054655560271,7.419440161554968
24.207513416815743,-9.996464677223777,7.431069100674341
24.35062611806798,-9.9829610791053,7.442716266536174
24.493738819320214,-9.969792196571468,7.454381687708351
24.63685152057245,-9.957198282887136,7.466065392803528
24.779964221824685,-9.945407189793071,7.477767410479208
24.923076923076916,-9.934630335557054,7.489487769437809
25.066189624329155,-9.925059029421385,7.501226498426739
25.20930232558139,-9.916861213463418,7.51298362623846
25.352415026833633,-9.910178674044847,7.524759181710567
25.495527728085868,-9.905124765436247,7.53655319372585
25.6386404293381,-9.901782678060979,7.548365691212369
25.78175313059034,-9.900204273305649,7.560196703143526
25.924865831842574,-9.90040949619311,7.572046258538134
26.06797853309481,-9.902386366605162,7.583914386460493
26.211091234347045,-9.906091539365807,7.595801116020447
26.354203935599276,-9.911451413533047,7.607706476373479
26.49731663685152,-9.91836376186547,7.619630496720756
26.640429338103758,-9.926699842781739,7.631573206309225
26.783542039355993,-9.936306949351753,7.643534634431669
26.926654740608228,-9.947011343063151,7.655514810426779
27.06976744186046,-9.958621514390606,7.667513763679237
27.212880143112695,-9.970931707630747,7.679531523619776
27.35599284436493,-9.983725644103325,7.6915681197252646
27.49910554561717,-9.996780375685962,7.703623581518765
27.642218246869405,-10.009870199752141,7.715697938569615
27.785330948121644,-10.022770566902157,7.727791220493502
27.92844364937388,-10.035261914378001,7.739903456952527
28.071556350626114,-10.047133360678282,7.752034677655283
28.21466905187835,-10.05818620056393,7.76418491235693
28.35778175313059,-10.0682371442785,7.776354190859262
28.500894454382827,-10.077121250294159,7.788542543010782
28.64400715563506,-10.08469450711928,7.800749998706783
28.787119856887294,-10.090836026540766,7.812976587889409
28.930232558139533,-10.09544981799112,7.825222340547736
29.073345259391772,-10.09846612139055,7.837487286717838
29.21645796064401,-10.099842283679026,7.849771456482877
29.359570661896242,-10.099563172184798,7.862074879973162
29.502683363148478,-10.097641125838726,7.874397587366219
29.645796064400713,-10.094115452908428,7.886739608886886
29.78890876565295,-10.089051491269435,7.899100974807366
29.932021466905184,-10.082539254138483,7.911481715447313
30.07513416815742,-10.074691690563292,7.923881861173896
30.21824686940966,-10.065642595702625,7.936301442401893
30.361359570661897,-10.055544210961148,7.94874048959374
30.504472271914132,-10.044564558302138,7.9611990332596285
30.647584973166367,-10.032884556496956,7.973677103957564
30.790697674418603,-10.020694969649306,7.986174732293449
30.933810375670838,-10.00819324003449,7.998691948921156
31.076923076923073,-9.995580258114716,8.011228784542608
31.22003577817531,-9.983057122540389,8.023785269907846
31.36314847942755,-9.97082194204821,8.036361435815099
31.506261180679783,-9.959066729455941,8.048957313110884
31.64937388193202,-9.94797443548001,8.061572932690055
31.792486583184257,-9.937716166924885,8.07420832549589
31.935599284436492,-9.928448629981563,8.086863522520167
32.07871198568873,-9.920311835003771,8.099538554803242
32.22182468694096,-9.913427094288359,8.112233453434122
32.3649373881932,-9.907895339159877,8.124948249550537
32.50805008944543,-9.903795777140706,8.137682974339027
32.651162790697676,-9.901184904271936,8.15043765903501
32.79427549194991,-9.900095881831085,8.163212334922859
32.937388193202146,-9.90053828086405,8.176007033335983
33.08050089445438,-9.902498192201907,8.188821785656904
33.22361359570662,-9.905938694054903,8.201656623317328
33.36672629695885,-9.910800663948338,8.214511577798227
33.50983899821109,-9.917003916763786,8.227386680629918
33.652951699463316,-9.924448646042464,8.240281963392135
33.796064400715565,-9.933017141555945,8.253197457714103
33.9391771019678,-9.942575752504478,8.26613319527463
34.082289803220036,-9.952977062607088,8.279089207802173
34.22540250447227,-9.964062240833398,8.29206552707492
34.3685152057245,-9.975663529617181,8.305062184920866
34.51162790697674,-9.987606831099622,8.31807921321789
34.65474060822898,-9.999714351279053,8.33111664389384
34.79785330948121,-10.011807261887544,8.3441745089266
34.94096601073345,-10.023708340358109,8.357252840344179
35.08407871198569,-10.03524454936547,8.370351670224789
35.227191413237925,-10.046249519086611,8.38347103069691
35.37030411449017,-10.056565897496345,8.396610953939387
35.513416815742396,-10.066047536641747,8.409771472181502
35.65652951699463,-10.07456148587783,8.422952617703045
35.799642218246866,-10.081989766438841,8.436154422834402
35.9427549194991,-10.088230905407409,8.449376919956638
36.08586762075134,-10.09320121106446,8.462620141501565
36.22898032200357,-10.096835775694586,8.475884119951829
36.372093023255815,-10.09908919611958,8.489168887840991
36.51520572450805,-10.099936006474064,8.502474477753598
36.658318425760285,-10.099370821959237,8.51580092232527
36.80143112701252,-10.097408196453356,8.529148254242784
36.944543828264756,-10.094082200863557,8.542516506244146
37.08765652951699,-10.089445732919161,8.55590571111867
37.230769230769226,-10.083569572682407,8.569315901707073
37.37388193202146,-10.076541201344035,8.582747110901531
